**********************************************************************
* File created by WinSpec 1.27 (23.04.08) on 30.01.2011 at 19:10:40
**********************************************************************
* 1: Data read from file P:\JAVA\GLOBALBEDO1\SRC\MAIN\RESOURCES\ORG\ESA\BEAM\GLOBALBEDO\SDR\OPERATORS\SURFACE_REFLECTANCE_SPEC.ASC
* 2: y-axis: 0.0099999998 subtracted
**********************************************************************
**********************************************************************
**********************************************************************
* File created by WinSpec 1.27 (23.04.08) on 14.05.2010 at 21:13:04
**********************************************************************
* This file contains the spectra of
* surface reflectances for
* bare soil and vegetation
* for the aerosol retrieval
**********************************************************************
**********************************************************************
* X-Axis =  Wavlength [um] 
* Y-Axis = Vegetation Reflectance (PROSPECT leaf) 
**********************************************************************
  0.4000  4.27000E-02
  0.4010  4.28000E-02
  0.4020  4.29000E-02
  0.4030  4.30000E-02
  0.4040  4.31000E-02
  0.4050  4.32000E-02
  0.4060  4.32400E-02
  0.4070  4.32800E-02
  0.4080  4.33200E-02
  0.4090  4.33600E-02
  0.4100  4.34000E-02
  0.4110  4.35200E-02
  0.4120  4.36400E-02
  0.4130  4.37600E-02
  0.4140  4.38800E-02
  0.4150  4.40000E-02
  0.4160  4.40600E-02
  0.4170  4.41200E-02
  0.4180  4.41800E-02
  0.4190  4.42400E-02
  0.4200  4.43000E-02
  0.4210  4.44000E-02
  0.4220  4.45000E-02
  0.4230  4.46000E-02
  0.4240  4.47000E-02
  0.4250  4.48000E-02
  0.4260  4.48200E-02
  0.4270  4.48400E-02
  0.4280  4.48600E-02
  0.4290  4.48800E-02
  0.4300  4.49000E-02
  0.4310  4.49200E-02
  0.4320  4.49400E-02
  0.4330  4.49600E-02
  0.4340  4.49800E-02
  0.4350  4.50000E-02
  0.4360  4.50400E-02
  0.4370  4.50800E-02
  0.4380  4.51200E-02
  0.4390  4.51600E-02
  0.4400  4.52000E-02
  0.4410  4.53200E-02
  0.4420  4.54400E-02
  0.4430  4.55600E-02
  0.4440  4.56800E-02
  0.4450  4.58000E-02
  0.4460  4.60200E-02
  0.4470  4.62400E-02
  0.4480  4.64600E-02
  0.4490  4.66800E-02
  0.4500  4.69000E-02
  0.4510  4.71200E-02
  0.4520  4.73400E-02
  0.4530  4.75600E-02
  0.4540  4.77800E-02
  0.4550  4.80000E-02
  0.4560  4.80800E-02
  0.4570  4.81600E-02
  0.4580  4.82400E-02
  0.4590  4.83200E-02
  0.4600  4.84000E-02
  0.4610  4.83800E-02
  0.4620  4.83600E-02
  0.4630  4.83400E-02
  0.4640  4.83200E-02
  0.4650  4.83000E-02
  0.4660  4.83400E-02
  0.4670  4.83800E-02
  0.4680  4.84200E-02
  0.4690  4.84600E-02
  0.4700  4.85000E-02
  0.4710  4.85400E-02
  0.4720  4.85800E-02
  0.4730  4.86200E-02
  0.4740  4.86600E-02
  0.4750  4.87000E-02
  0.4760  4.87400E-02
  0.4770  4.87800E-02
  0.4780  4.88200E-02
  0.4790  4.88600E-02
  0.4800  4.89000E-02
  0.4810  4.89800E-02
  0.4820  4.90600E-02
  0.4830  4.91400E-02
  0.4840  4.92200E-02
  0.4850  4.93000E-02
  0.4860  4.95000E-02
  0.4870  4.97000E-02
  0.4880  4.99000E-02
  0.4890  5.01000E-02
  0.4900  5.03000E-02
  0.4910  5.06400E-02
  0.4920  5.09800E-02
  0.4930  5.13200E-02
  0.4940  5.16600E-02
  0.4950  5.20000E-02
  0.4960  5.26200E-02
  0.4970  5.32400E-02
  0.4980  5.38600E-02
  0.4990  5.44800E-02
  0.5000  5.51000E-02
  0.5010  5.61200E-02
  0.5020  5.71400E-02
  0.5030  5.81600E-02
  0.5040  5.91800E-02
  0.5050  6.02000E-02
  0.5060  6.17200E-02
  0.5070  6.32400E-02
  0.5080  6.47600E-02
  0.5090  6.62800E-02
  0.5100  6.78000E-02
  0.5110  7.00400E-02
  0.5120  7.22800E-02
  0.5130  7.45200E-02
  0.5140  7.67600E-02
  0.5150  7.90000E-02
  0.5160  8.18200E-02
  0.5170  8.46400E-02
  0.5180  8.74600E-02
  0.5190  9.02800E-02
  0.5200  9.31000E-02
  0.5210  9.60200E-02
  0.5220  9.89400E-02
  0.5230  1.01860E-01
  0.5240  1.04780E-01
  0.5250  1.07700E-01
  0.5260  1.10020E-01
  0.5270  1.12340E-01
  0.5280  1.14660E-01
  0.5290  1.16980E-01
  0.5300  1.19300E-01
  0.5310  1.20620E-01
  0.5320  1.21940E-01
  0.5330  1.23260E-01
  0.5340  1.24580E-01
  0.5350  1.25900E-01
  0.5360  1.26500E-01
  0.5370  1.27100E-01
  0.5380  1.27700E-01
  0.5390  1.28300E-01
  0.5400  1.28900E-01
  0.5410  1.29380E-01
  0.5420  1.29860E-01
  0.5430  1.30340E-01
  0.5440  1.30820E-01
  0.5450  1.31300E-01
  0.5460  1.31620E-01
  0.5470  1.31940E-01
  0.5480  1.32260E-01
  0.5490  1.32580E-01
  0.5500  1.32900E-01
  0.5510  1.32680E-01
  0.5520  1.32460E-01
  0.5530  1.32240E-01
  0.5540  1.32020E-01
  0.5550  1.31800E-01
  0.5560  1.31100E-01
  0.5570  1.30400E-01
  0.5580  1.29700E-01
  0.5590  1.29000E-01
  0.5600  1.28300E-01
  0.5610  1.27140E-01
  0.5620  1.25980E-01
  0.5630  1.24820E-01
  0.5640  1.23660E-01
  0.5650  1.22500E-01
  0.5660  1.20620E-01
  0.5670  1.18740E-01
  0.5680  1.16860E-01
  0.5690  1.14980E-01
  0.5700  1.13100E-01
  0.5710  1.11440E-01
  0.5720  1.09780E-01
  0.5730  1.08120E-01
  0.5740  1.06460E-01
  0.5750  1.04800E-01
  0.5760  1.03440E-01
  0.5770  1.02080E-01
  0.5780  1.00720E-01
  0.5790  9.93600E-02
  0.5800  9.80000E-02
  0.5810  9.70800E-02
  0.5820  9.61600E-02
  0.5830  9.52400E-02
  0.5840  9.43200E-02
  0.5850  9.34000E-02
  0.5860  9.27200E-02
  0.5870  9.20400E-02
  0.5880  9.13600E-02
  0.5890  9.06800E-02
  0.5900  9.00000E-02
  0.5910  8.95200E-02
  0.5920  8.90400E-02
  0.5930  8.85600E-02
  0.5940  8.80800E-02
  0.5950  8.76000E-02
  0.5960  8.73200E-02
  0.5970  8.70400E-02
  0.5980  8.67600E-02
  0.5990  8.64800E-02
  0.6000  8.62000E-02
  0.6010  8.57800E-02
  0.6020  8.53600E-02
  0.6030  8.49400E-02
  0.6040  8.45200E-02
  0.6050  8.41000E-02
  0.6060  8.33000E-02
  0.6070  8.25000E-02
  0.6080  8.17000E-02
  0.6090  8.09000E-02
  0.6100  8.01000E-02
  0.6110  7.93200E-02
  0.6120  7.85400E-02
  0.6130  7.77600E-02
  0.6140  7.69800E-02
  0.6150  7.62000E-02
  0.6160  7.55600E-02
  0.6170  7.49200E-02
  0.6180  7.42800E-02
  0.6190  7.36400E-02
  0.6200  7.30000E-02
  0.6210  7.26800E-02
  0.6220  7.23600E-02
  0.6230  7.20400E-02
  0.6240  7.17200E-02
  0.6250  7.14000E-02
  0.6260  7.12600E-02
  0.6270  7.11200E-02
  0.6280  7.09800E-02
  0.6290  7.08400E-02
  0.6300  7.07000E-02
  0.6310  7.04800E-02
  0.6320  7.02600E-02
  0.6330  7.00400E-02
  0.6340  6.98200E-02
  0.6350  6.96000E-02
  0.6360  6.89000E-02
  0.6370  6.82000E-02
  0.6380  6.75000E-02
  0.6390  6.68000E-02
  0.6400  6.61000E-02
  0.6410  6.51600E-02
  0.6420  6.42200E-02
  0.6430  6.32800E-02
  0.6440  6.23400E-02
  0.6450  6.14000E-02
  0.6460  6.06400E-02
  0.6470  5.98800E-02
  0.6480  5.91200E-02
  0.6490  5.83600E-02
  0.6500  5.76000E-02
  0.6510  5.72000E-02
  0.6520  5.68000E-02
  0.6530  5.64000E-02
  0.6540  5.60000E-02
  0.6550  5.56000E-02
  0.6560  5.49800E-02
  0.6570  5.43600E-02
  0.6580  5.37400E-02
  0.6590  5.31200E-02
  0.6600  5.25000E-02
  0.6610  5.16600E-02
  0.6620  5.08200E-02
  0.6630  4.99800E-02
  0.6640  4.91400E-02
  0.6650  4.83000E-02
  0.6660  4.77400E-02
  0.6670  4.71800E-02
  0.6680  4.66200E-02
  0.6690  4.60600E-02
  0.6700  4.55000E-02
  0.6710  4.52600E-02
  0.6720  4.50200E-02
  0.6730  4.47800E-02
  0.6740  4.45400E-02
  0.6750  4.43000E-02
  0.6760  4.43200E-02
  0.6770  4.43400E-02
  0.6780  4.43600E-02
  0.6790  4.43800E-02
  0.6800  4.44000E-02
  0.6810  4.50200E-02
  0.6820  4.56400E-02
  0.6830  4.62600E-02
  0.6840  4.68800E-02
  0.6850  4.75000E-02
  0.6860  4.99200E-02
  0.6870  5.23400E-02
  0.6880  5.47600E-02
  0.6890  5.71800E-02
  0.6900  5.96000E-02
  0.6910  6.48600E-02
  0.6920  7.01200E-02
  0.6930  7.53800E-02
  0.6940  8.06400E-02
  0.6950  8.59000E-02
  0.6960  9.32400E-02
  0.6970  1.00580E-01
  0.6980  1.07920E-01
  0.6990  1.15260E-01
  0.7000  1.22600E-01
  0.7010  1.30440E-01
  0.7020  1.38280E-01
  0.7030  1.46120E-01
  0.7040  1.53960E-01
  0.7050  1.61800E-01
  0.7060  1.69320E-01
  0.7070  1.76840E-01
  0.7080  1.84360E-01
  0.7090  1.91880E-01
  0.7100  1.99400E-01
  0.7110  2.06340E-01
  0.7120  2.13280E-01
  0.7130  2.20220E-01
  0.7140  2.27160E-01
  0.7150  2.34100E-01
  0.7160  2.40880E-01
  0.7170  2.47660E-01
  0.7180  2.54440E-01
  0.7190  2.61220E-01
  0.7200  2.68000E-01
  0.7210  2.74440E-01
  0.7220  2.80880E-01
  0.7230  2.87320E-01
  0.7240  2.93760E-01
  0.7250  3.00200E-01
  0.7260  3.04720E-01
  0.7270  3.09240E-01
  0.7280  3.13760E-01
  0.7290  3.18280E-01
  0.7300  3.22800E-01
  0.7310  3.27040E-01
  0.7320  3.31280E-01
  0.7330  3.35520E-01
  0.7340  3.39760E-01
  0.7350  3.44000E-01
  0.7360  3.46760E-01
  0.7370  3.49520E-01
  0.7380  3.52280E-01
  0.7390  3.55040E-01
  0.7400  3.57800E-01
  0.7410  3.59760E-01
  0.7420  3.61720E-01
  0.7430  3.63680E-01
  0.7440  3.65640E-01
  0.7450  3.67600E-01
  0.7460  3.69660E-01
  0.7470  3.71720E-01
  0.7480  3.73780E-01
  0.7490  3.75840E-01
  0.7500  3.77900E-01
  0.7510  3.77880E-01
  0.7520  3.77860E-01
  0.7530  3.77840E-01
  0.7540  3.77820E-01
  0.7550  3.77800E-01
  0.7560  3.78840E-01
  0.7570  3.79880E-01
  0.7580  3.80920E-01
  0.7590  3.81960E-01
  0.7600  3.83000E-01
  0.7610  3.83000E-01
  0.7620  3.83000E-01
  0.7630  3.83000E-01
  0.7640  3.83000E-01
  0.7650  3.83000E-01
  0.7660  3.82960E-01
  0.7670  3.82920E-01
  0.7680  3.82880E-01
  0.7690  3.82840E-01
  0.7700  3.82800E-01
  0.7710  3.83900E-01
  0.7720  3.85000E-01
  0.7730  3.86100E-01
  0.7740  3.87200E-01
  0.7750  3.88300E-01
  0.7760  3.88300E-01
  0.7770  3.88300E-01
  0.7780  3.88300E-01
  0.7790  3.88300E-01
  0.7800  3.88300E-01
  0.7810  3.88300E-01
  0.7820  3.88300E-01
  0.7830  3.88300E-01
  0.7840  3.88300E-01
  0.7850  3.88300E-01
  0.7860  3.88300E-01
  0.7870  3.88300E-01
  0.7880  3.88300E-01
  0.7890  3.88300E-01
  0.7900  3.88300E-01
  0.7910  3.88300E-01
  0.7920  3.88300E-01
  0.7930  3.88300E-01
  0.7940  3.88300E-01
  0.7950  3.88300E-01
  0.7960  3.88100E-01
  0.7970  3.87900E-01
  0.7980  3.87700E-01
  0.7990  3.87500E-01
  0.8000  3.87300E-01
  0.8040  3.90100E-01
  0.8080  3.87800E-01
  0.8120  3.87200E-01
  0.8160  3.89640E-01
  0.8200  3.91000E-01
  0.8240  3.97400E-01
  0.8280  3.91800E-01
  0.8320  3.88120E-01
  0.8360  3.92480E-01
  0.8400  4.03200E-01
  0.8440  3.99040E-01
  0.8480  4.05740E-01
  0.8520  4.14140E-01
  0.8560  4.15660E-01
  0.8600  4.02300E-01
  0.8640  4.01420E-01
  0.8680  4.02100E-01
  0.8720  4.01940E-01
  0.8760  4.00980E-01
  0.8800  4.01700E-01
  0.8840  4.02580E-01
  0.8880  4.03280E-01
  0.8920  4.03800E-01
  0.8960  4.03860E-01
  0.9000  4.02900E-01
  0.9040  4.01780E-01
  0.9080  4.02160E-01
  0.9120  4.02800E-01
  0.9160  4.02720E-01
  0.9200  4.01200E-01
  0.9240  4.03520E-01
  0.9280  4.04220E-01
  0.9320  4.05180E-01
  0.9360  4.06620E-01
  0.9400  4.07100E-01
  0.9440  4.07740E-01
  0.9480  4.07060E-01
  0.9520  4.06780E-01
  0.9560  4.07520E-01
  0.9600  4.08800E-01
  0.9640  4.08640E-01
  0.9680  4.09860E-01
  0.9720  4.10100E-01
  0.9760  4.09460E-01
  0.9800  4.10500E-01
  0.9840  4.11460E-01
  0.9880  4.12720E-01
  0.9920  4.11720E-01
  0.9960  4.09780E-01
  1.0000  4.12100E-01
  1.0040  4.12660E-01
  1.0080  4.14600E-01
  1.0120  4.15960E-01
  1.0160  4.16180E-01
  1.0200  4.16100E-01
  1.0240  4.15940E-01
  1.0280  4.14760E-01
  1.0320  4.13960E-01
  1.0360  4.13380E-01
  1.0400  4.11300E-01
  1.0440  4.10820E-01
  1.0480  4.10940E-01
  1.0520  4.12740E-01
  1.0560  4.14860E-01
  1.0600  4.13500E-01
  1.0640  4.13420E-01
  1.0680  4.13760E-01
  1.0720  4.13360E-01
  1.0760  4.12900E-01
  1.0800  4.14900E-01
  1.0840  4.14100E-01
  1.0880  4.15400E-01
  1.0920  4.15720E-01
  1.0960  4.14920E-01
  1.1000  4.15800E-01
  1.1040  4.14600E-01
  1.1080  4.14720E-01
  1.1120  4.14720E-01
  1.1160  4.14100E-01
  1.1200  4.13300E-01
  1.1240  4.15540E-01
  1.1280  4.14480E-01
  1.1320  4.12080E-01
  1.1360  4.09980E-01
  1.1400  4.09500E-01
  1.1440  4.07340E-01
  1.1480  4.05000E-01
  1.1520  4.01720E-01
  1.1560  3.99300E-01
  1.1600  4.02100E-01
  1.1640  3.98340E-01
  1.1680  3.97160E-01
  1.1720  3.96360E-01
  1.1760  3.95700E-01
  1.1800  3.96900E-01
  1.1840  3.94260E-01
  1.1880  3.93660E-01
  1.1920  3.95380E-01
  1.1960  3.97940E-01
  1.2000  3.98100E-01
  1.2040  3.95860E-01
  1.2080  3.96440E-01
  1.2120  3.97040E-01
  1.2160  3.96820E-01
  1.2200  3.96900E-01
  1.2240  3.98980E-01
  1.2280  4.01000E-01
  1.2320  4.02360E-01
  1.2360  4.02980E-01
  1.2400  4.03300E-01
  1.2440  4.04900E-01
  1.2480  4.05360E-01
  1.2520  4.05560E-01
  1.2560  4.06540E-01
  1.2600  4.09500E-01
  1.2640  4.10620E-01
  1.2680  4.08740E-01
  1.2720  4.06500E-01
  1.2760  4.05600E-01
  1.2800  4.06800E-01
  1.2840  4.06000E-01
  1.2880  4.06760E-01
  1.2920  4.05520E-01
  1.2960  4.02440E-01
  1.3000  4.01400E-01
  1.3040  4.01400E-01
  1.3080  3.99960E-01
  1.3120  3.98080E-01
  1.3160  3.96340E-01
  1.3200  3.94900E-01
  1.3240  3.92660E-01
  1.3280  3.90720E-01
  1.3320  3.88440E-01
  1.3360  3.85140E-01
  1.3400  3.80100E-01
  1.3440  3.79540E-01
  1.3480  3.76640E-01
  1.3520  3.72120E-01
  1.3560  3.67940E-01
  1.3600  3.67300E-01
  1.3640  3.67460E-01
  1.3680  3.62700E-01
  1.3720  3.55660E-01
  1.3760  3.47320E-01
  1.3800  3.37000E-01
  1.3840  3.24760E-01
  1.3880  3.08260E-01
  1.3920  2.89700E-01
  1.3960  2.70720E-01
  1.4000  2.52400E-01
  1.4040  2.36560E-01
  1.4080  2.21740E-01
  1.4120  2.09980E-01
  1.4160  2.01480E-01
  1.4200  1.94600E-01
  1.4240  1.86280E-01
  1.4280  1.81320E-01
  1.4320  1.77600E-01
  1.4360  1.74000E-01
  1.4400  1.70400E-01
  1.4440  1.66880E-01
  1.4480  1.67740E-01
  1.4520  1.68700E-01
  1.4560  1.67920E-01
  1.4600  1.66000E-01
  1.4640  1.68000E-01
  1.4680  1.71380E-01
  1.4720  1.74740E-01
  1.4760  1.78000E-01
  1.4800  1.82400E-01
  1.4840  1.84160E-01
  1.4880  1.86460E-01
  1.4920  1.89460E-01
  1.4960  1.93160E-01
  1.5000  1.97400E-01
  1.5040  2.01560E-01
  1.5080  2.06440E-01
  1.5120  2.11040E-01
  1.5160  2.14800E-01
  1.5200  2.17600E-01
  1.5240  2.22640E-01
  1.5280  2.27740E-01
  1.5320  2.31100E-01
  1.5360  2.33500E-01
  1.5400  2.38300E-01
  1.5440  2.41260E-01
  1.5480  2.44280E-01
  1.5520  2.48320E-01
  1.5560  2.52760E-01
  1.5600  2.55400E-01
  1.5640  2.57160E-01
  1.5680  2.58980E-01
  1.5720  2.60140E-01
  1.5760  2.61180E-01
  1.5800  2.63900E-01
  1.5840  2.65660E-01
  1.5880  2.67420E-01
  1.5920  2.69580E-01
  1.5960  2.71520E-01
  1.6000  2.71600E-01
  1.6040  2.74720E-01
  1.6080  2.76400E-01
  1.6120  2.78080E-01
  1.6160  2.79800E-01
  1.6200  2.80200E-01
  1.6240  2.81480E-01
  1.6280  2.81800E-01
  1.6320  2.82240E-01
  1.6360  2.83660E-01
  1.6400  2.86700E-01
  1.6440  2.86460E-01
  1.6480  2.86640E-01
  1.6520  2.86760E-01
  1.6560  2.86800E-01
  1.6600  2.87200E-01
  1.6640  2.85680E-01
  1.6680  2.82960E-01
  1.6720  2.81120E-01
  1.6760  2.79720E-01
  1.6800  2.75800E-01
  1.6840  2.71880E-01
  1.6880  2.67720E-01
  1.6920  2.63800E-01
  1.6960  2.60060E-01
  1.7000  2.55900E-01
  1.7040  2.53820E-01
  1.7080  2.52820E-01
  1.7120  2.51100E-01
  1.7160  2.48440E-01
  1.7200  2.46200E-01
  1.7240  2.45160E-01
  1.7280  2.42620E-01
  1.7320  2.41500E-01
  1.7360  2.41860E-01
  1.7400  2.40900E-01
  1.7440  2.41220E-01
  1.7480  2.40400E-01
  1.7520  2.39080E-01
  1.7560  2.37960E-01
  1.7600  2.37800E-01
  1.7640  2.35880E-01
  1.7680  2.36600E-01
  1.7720  2.37960E-01
  1.7760  2.38820E-01
  1.7800  2.38900E-01
  1.7840  2.38740E-01
  1.7880  2.39720E-01
  1.7920  2.41000E-01
  1.7960  2.42000E-01
  1.8000  2.42400E-01
  1.8040  2.44000E-01
  1.8080  2.44400E-01
  1.8120  2.44360E-01
  1.8160  2.44340E-01
  1.8200  2.44500E-01
  1.8240  2.44900E-01
  1.8280  2.45180E-01
  1.8320  2.44980E-01
  1.8360  2.44540E-01
  1.8400  2.44700E-01
  1.8440  2.42940E-01
  1.8480  2.39680E-01
  1.8520  2.35120E-01
  1.8560  2.29560E-01
  1.8600  2.23400E-01
  1.8640  2.11880E-01
  1.8680  1.98620E-01
  1.8720  1.82380E-01
  1.8760  1.63180E-01
  1.8800  1.42300E-01
  1.8840  1.17420E-01
  1.8880  9.62000E-02
  1.8920  7.98400E-02
  1.8960  6.73000E-02
  1.9000  5.53000E-02
  1.9040  4.63400E-02
  1.9080  3.99000E-02
  1.9120  3.55400E-02
  1.9160  3.29400E-02
  1.9200  3.19000E-02
  1.9240  3.10200E-02
  1.9280  3.03200E-02
  1.9320  3.00000E-02
  1.9360  3.02000E-02
  1.9400  3.10000E-02
  1.9440  3.06800E-02
  1.9480  3.13200E-02
  1.9520  3.20800E-02
  1.9560  3.27800E-02
  1.9600  3.39000E-02
  1.9640  3.43800E-02
  1.9680  3.58200E-02
  1.9720  3.83000E-02
  1.9760  4.12800E-02
  1.9800  4.36000E-02
  1.9840  4.56800E-02
  1.9880  4.82400E-02
  1.9920  5.05200E-02
  1.9960  5.24400E-02
  2.0000  5.46000E-02
  2.0040  5.66800E-02
  2.0080  5.90000E-02
  2.0120  6.11600E-02
  2.0160  6.29200E-02
  2.0200  6.42000E-02
  2.0240  6.54800E-02
  2.0280  6.68800E-02
  2.0320  6.78400E-02
  2.0360  6.81200E-02
  2.0400  6.78000E-02
  2.0440  6.76400E-02
  2.0480  6.76600E-02
  2.0520  6.76600E-02
  2.0560  6.77000E-02
  2.0600  6.81000E-02
  2.0640  7.10600E-02
  2.0680  7.47400E-02
  2.0720  7.81800E-02
  2.0760  8.10000E-02
  2.0795  8.31000E-02
  2.0803  8.34720E-02
  2.0812  8.36880E-02
  2.0820  8.38800E-02
  2.0828  8.40720E-02
  2.0837  8.42880E-02
  2.0845  8.44800E-02
  2.0853  8.47920E-02
  2.0862  8.53680E-02
  2.0870  8.58800E-02
  2.0879  8.64560E-02
  2.0887  8.69680E-02
  2.0895  8.74800E-02
  2.0904  8.79600E-02
  2.0912  8.82800E-02
  2.0921  8.86400E-02
  2.0929  8.89600E-02
  2.0938  8.93200E-02
  2.0946  8.96400E-02
  2.0955  8.99100E-02
  2.0963  9.00860E-02
  2.0971  9.02620E-02
  2.0980  9.04600E-02
  2.0988  9.06360E-02
  2.0997  9.08340E-02
  2.1005  9.11200E-02
  2.1014  9.15160E-02
  2.1023  9.19120E-02
  2.1031  9.22640E-02
  2.1040  9.26600E-02
  2.1048  9.30120E-02
  2.1057  9.32820E-02
  2.1065  9.34900E-02
  2.1074  9.37240E-02
  2.1082  9.39320E-02
  2.1091  9.41660E-02
  2.1100  9.44000E-02
  2.1108  9.45760E-02
  2.1117  9.47740E-02
  2.1125  9.49500E-02
  2.1134  9.51480E-02
  2.1143  9.53460E-02
  2.1151  9.55420E-02
  2.1160  9.59200E-02
  2.1168  9.62560E-02
  2.1177  9.66340E-02
  2.1186  9.70120E-02
  2.1194  9.73480E-02
  2.1203  9.76180E-02
  2.1212  9.76720E-02
  2.1220  9.77200E-02
  2.1229  9.77740E-02
  2.1238  9.78280E-02
  2.1247  9.78820E-02
  2.1255  9.79300E-02
  2.1264  9.79840E-02
  2.1273  9.80380E-02
  2.1281  9.80860E-02
  2.1290  9.81400E-02
  2.1299  9.81940E-02
  2.1308  9.82800E-02
  2.1316  9.83600E-02
  2.1325  9.84500E-02
  2.1334  9.85400E-02
  2.1343  9.86300E-02
  2.1352  9.86800E-02
  2.1360  9.86000E-02
  2.1369  9.85100E-02
  2.1378  9.84200E-02
  2.1387  9.83300E-02
  2.1396  9.82400E-02
  2.1404  9.80400E-02
  2.1413  9.76800E-02
  2.1422  9.73200E-02
  2.1431  9.69600E-02
  2.1440  9.66000E-02
  2.1449  9.62400E-02
  2.1458  9.61840E-02
  2.1466  9.61680E-02
  2.1475  9.61500E-02
  2.1484  9.61320E-02
  2.1493  9.61140E-02
  2.1502  9.60760E-02
  2.1511  9.59680E-02
  2.1520  9.58600E-02
  2.1529  9.57520E-02
  2.1538  9.56440E-02
  2.1547  9.55360E-02
  2.1556  9.54520E-02
  2.1565  9.53800E-02
  2.1574  9.53080E-02
  2.1583  9.52360E-02
  2.1592  9.51640E-02
  2.1601  9.50820E-02
  2.1610  9.49200E-02
  2.1619  9.47580E-02
  2.1628  9.45960E-02
  2.1637  9.44340E-02
  2.1646  9.42720E-02
  2.1655  9.41600E-02
  2.1664  9.40880E-02
  2.1673  9.40160E-02
  2.1682  9.39440E-02
  2.1691  9.38720E-02
  2.1700  9.38000E-02
  2.1709  9.38000E-02
  2.1718  9.38000E-02
  2.1727  9.38000E-02
  2.1736  9.38000E-02
  2.1746  9.38000E-02
  2.1755  9.38800E-02
  2.1764  9.40240E-02
  2.1773  9.41680E-02
  2.1782  9.43120E-02
  2.1791  9.44560E-02
  2.1800  9.46000E-02
  2.1810  9.49400E-02
  2.1819  9.52460E-02
  2.1828  9.55520E-02
  2.1837  9.58580E-02
  2.1846  9.61640E-02
  2.1856  9.63600E-02
  2.1865  9.64500E-02
  2.1874  9.65400E-02
  2.1883  9.66300E-02
  2.1893  9.67300E-02
  2.1902  9.68280E-02
  2.1911  9.69540E-02
  2.1920  9.70800E-02
  2.1930  9.72200E-02
  2.1939  9.73460E-02
  2.1948  9.74720E-02
  2.1957  9.76960E-02
  2.1967  9.79760E-02
  2.1976  9.82280E-02
  2.1985  9.84800E-02
  2.1995  9.87600E-02
